Time (h),Temperature (degC)
0,7.999995983918327
1,8.007542350638042
2,8.020154078540715
3,8.035306299632497
4,8.050803769648015
5,8.067327036316826
6,8.083850302985878
7,8.10037356965491
8,8.11861640149598
9,8.137514396822029
10,8.15641239214823
11,8.175310387474147
12,8.194208382800394
13,8.21310637812656
14,8.2320043734525
15,8.251338090813134
16,8.270887680021183
17,8.290437269229193
18,8.309986858436963
19,8.329536447644978
20,8.349086036852933
21,8.368635626060838
22,8.388185215268814
23,8.40773480447672
24,8.427284393684696
25,8.446833982892729
26,8.46638357210056
27,8.48593316130854
28,8.505482750516443
29,8.524721089526995
30,8.543712767911533
31,8.562704446295886
32,8.58169612468041
33,8.600687803064753
34,8.619679481449344
35,8.638671159833805
36,8.657662838218315
37,8.676654516602728
38,8.695646194987297
39,8.714637873371698
40,8.73362955175626
41,8.75262123014073
42,8.771612908525235
43,8.790284501103264
44,8.808560213690283
45,8.82683592627737
46,8.845111638864287
47,8.86338735145117
48,8.881663064038396
49,8.899938776625177
50,8.918214489212266
51,8.93649020179924
52,8.954765914386297
53,8.973041626973165
54,8.991317339560245
55,9.009593052147231
56,9.027868764734157
57,9.046144477321214
58,9.06442018990813
59,9.082695902495185
60,9.100971615082182
61,9.119247327669061
62,9.13752304025607
63,9.155798752843056
64,9.174074465430069
65,9.192350178017026
66,9.210625890603906
67,9.228901603191106
68,9.247177315778021
69,9.265453028365052
70,9.283728740951995
71,9.30175331993246
72,9.318915038327836
73,9.336076756723081
74,9.35323847511827
75,9.37040019351362
76,9.387561911908762
77,9.404723630303945
78,9.421885348699146
79,9.43904706709458
80,9.456208785489741
81,9.47337050388502
82,9.490532222280248
83,9.50769394067548
84,9.52485565907082
85,9.542017377465973
86,9.559179095861271
87,9.576340814256561
88,9.593502532651785
89,9.610664251046988
90,9.62782596944214
91,9.644987687837384
92,9.662149406232489
93,9.679311124627874
94,9.696472843023098
95,9.71363456141838
96,9.730796279813672
97,9.747957998208971
98,9.765119716604023
99,9.78228143499921
100,9.799443153394453
101,9.816604871789693
102,9.83376659018504
103,9.85092830858031
104,9.868090026975596
105,9.88525174537081
106,9.902413463765875
107,9.919575182161276
108,9.936736900556616
109,9.953898618951687
110,9.971060337346906
111,9.988222055742142
112,10.005383774137437
113,10.022545492532798
114,10.039707210927938
115,10.056868929323096
116,10.0740306477183
117,10.091192366113614
118,10.108354084508955
119,10.12551580290426
120,10.142677521299394
121,10.159839239694646
122,10.177000958089847
123,10.194162676485117
124,10.21132439488035
125,10.228486113275594
126,10.24564783167085
127,10.262809550066047
128,10.2783974142697
129,10.293546965567948
130,10.308696516866462
131,10.323846068164691
132,10.338995619462914
133,10.354145170761301
134,10.369294722059674
135,10.384444273358033
136,10.399593824656282
137,10.414743375954616
138,10.429892927252924
139,10.44504247855128
140,10.460192029849598
141,10.475341581147758
142,10.490491132446047
143,10.505640683744588
144,10.520790235042872
145,10.53593978634092
146,10.551089337639453
147,10.566238888937724
148,10.581388440235836
149,10.596537991534156
150,10.611687542832687
151,10.626837094130902
152,10.641986645429139
153,10.65713619672754
154,10.672285748025807
155,10.68743529932414
156,10.702584850622488
157,10.717734401920831
158,10.732883953219165
159,10.748033504517396
160,10.763183055815714
161,10.778332607113942
162,10.79348215841242
163,10.808631709710673
164,10.823781261008945
165,10.838930812307101
166,10.854080363605586
167,10.869229914903826
168,10.884379466202136
169,10.899529017500619
170,10.914678568798733
171,10.929828120097074
172,10.944977671395309
173,10.960127222693863
174,10.97527677399195
175,10.990426325290242
176,11.005575876588603
177,11.020725427886925
178,11.035874979185175
179,11.051024530483499
180,11.066174081781945
181,11.081323633080238
182,11.096473184378512
183,11.111622735676992
184,11.126772286975267
185,11.141921838273321
186,11.157071389571794
187,11.172220940870027
188,11.187370492168533
189,11.202520043466546
190,11.217669594764898
191,11.23281914606324
192,11.247968697361584
193,11.263118248659927
194,11.278267799958195
195,11.293417351256412
196,11.308566902554833
197,11.323716453853091
198,11.338866005151479
199,11.354015556449767
200,11.36916510774796
201,11.384314659046415
202,11.399464210344867
203,11.414613761643073
204,11.429763312941313
205,11.444912864239669
206,11.46006241553801
207,11.47521196683623
208,11.490361518134538
209,11.505511069432892
210,11.520660620731185
211,11.535810172029416
212,11.550959723327724
213,11.56610927462607
214,11.581258825924294
215,11.596408377222685
216,11.611557928521101
217,11.626707479819235
218,11.641857031117546
219,11.657006582415999
220,11.672156133714251
221,11.687305685012424
222,11.702455236310989
223,11.717604787609044
224,11.732754338907425
225,11.74790389020587
226,11.763053441504034
227,11.778202992802582
228,11.793352544100765
229,11.808502095398785
230,11.823651646697328
231,11.838801197995679
232,11.853950749294018
233,11.86910030059228
234,11.884249851890598
235,11.899399403188873
236,11.914548954487262
237,11.929698505785687
238,11.94484805708385
239,11.9599976083822
240,11.975147159680386
241,11.9895517083226
242,12.003869445163296
243,12.018187182004159
244,12.032504918844825
245,12.046822655685311
246,12.06114039252605
247,12.07545812936666
248,12.089775866207527
249,12.104093603047943
250,12.118411339888725
251,12.132729076729607
252,12.147046813570086
253,12.161364550410829
254,12.175682287251538
255,12.190000024092207
256,12.204317760932938
257,12.218635497773365
258,12.232953234614198
259,12.247270971454967
260,12.26158870829553
261,12.275906445136085
262,12.290224181976747
263,12.304541918817822
264,12.31885965565844
265,12.33317739249905
266,12.34749512933973
267,12.361812866180417
268,12.376130603020938
269,12.390448339861768
270,12.404766076702298
271,12.41908381354316
272,12.433401550383785
273,12.447719287224505
274,12.462037024065014
275,12.47635476090572
276,12.490672497746418
277,12.504990234587016
278,12.519307971427741
279,12.53362570826829
280,12.547943445109157
281,12.562261181949797
282,12.576578918790398
283,12.5908966556313
284,12.60521439247173
285,12.6195321293125
286,12.633849866153241
287,12.648167602993823
288,12.66248533983462
289,12.676803076675125
290,12.691120813515864
291,12.705438550356519
292,12.719756287197088
293,12.73407402403797
294,12.748391760878485
295,12.762709497719282
296,12.77702723455973
297,12.791344971400756
298,12.805662708241275
299,12.81998044508206
300,12.83429818192259
301,12.848615918763155
302,12.862933655603875
303,12.877251392444553
304,12.89156912928531
305,12.905886866126075
306,12.920204602966942
307,12.934522339807515
308,12.948840076648036
309,12.963157813488863
310,12.977475550329348
311,12.991793287170092
312,13.006111024010599
313,13.02042876085138
314,13.034746497692025
315,13.049064234532825
316,13.063381971373367
317,13.07769970821409
318,13.092017445054779
319,13.106335181895325
320,13.120652918736166
321,13.1349706555769
322,13.149288392417516
323,13.16360612925825
324,13.177923866098753
325,13.19224160293945
326,13.206559339780325
327,13.220877076620702
328,13.235194813461572
329,13.249512550302052
330,13.26383028714311
331,13.278148023983729
332,13.292465760824202
333,13.306783497664993
334,13.32110123450557
335,13.335418971346312
336,13.349736708187017
337,13.364054445027612
338,13.378372181868222
339,13.392689918708953
340,13.407007655549634
341,13.421325392390468
342,13.43564312923109
343,13.449960866071601
344,13.464278602912394
345,13.478596339753084
346,13.492914076593575
347,13.507231813434334
348,13.521549550275061
349,13.535867287115813
350,13.55018502395657
351,13.564502760797192
352,13.578820497637768
353,13.593125879461178
354,13.606086295311888
355,13.619046711162706
356,13.632007127013585
357,13.644967542864112
358,13.657927958714893
359,13.67088837456569
360,13.683848790416246
361,13.696809206267194
362,13.709769622117905
363,13.722730037968558
364,13.735690453819263
365,13.748650869670046
366,13.761611285520928
367,13.774571701371336
368,13.787532117222248
369,13.800492533073331
370,13.81345294892394
371,13.826413364774641
372,13.839373780625712
373,13.852334196476138
374,13.865294612327032
375,13.87825502817762
376,13.891215444028497
377,13.904175859879173
378,13.917136275729744
379,13.930096691580658
380,13.943057107431386
381,13.95601752328212
382,13.968977939133016
383,13.981938354983573
384,13.994898770834322
385,14.007859186685177
386,14.020819602536095
387,14.033780018386638
388,14.046740434237416
389,14.059700850088298
390,14.072661265938905
391,14.085621681789629
392,14.098582097640362
393,14.111542513491104
394,14.124502929341682
395,14.137463345192563
396,14.15042376104351
397,14.163384176894203
398,14.176344592744758
399,14.189305008595722
400,14.20226542444625
401,14.215225840297146
402,14.228186256147753
403,14.24114667199849
404,14.25410708784934
405,14.267067503700167
406,14.280027919550816
407,14.292988335401432
408,14.305948751252433
409,14.318909167103087
410,14.331869582953786
411,14.344829998804407
412,14.357790414655389
413,14.370750830506084
414,14.383711246356688
415,14.396671662207515
416,14.40963207805835
417,14.422592493908981
418,14.435552909759917
419,14.448513325610508
420,14.461473741461361
421,14.47443415731182
422,14.48739457316271
423,14.500354989013376
424,14.51331540486437
425,14.526275820714936
426,14.539236236565673
427,14.55219665241651
428,14.565157068267048
429,14.578117484117973
430,14.591077899968766
431,14.604038315819693
432,14.61699873167
433,14.629959147520982
434,14.642919563371786
435,14.655879979222593
436,14.668840395073488
437,14.68180081092391
438,14.694761226774556
439,14.707721642625371
440,14.720682058476179
441,14.733642474327063
442,14.746602890177995
443,14.759563306028806
444,14.772523721879441
445,14.785484137730046
446,14.79844455358079
447,14.811404969431296
448,14.824365385282315
449,14.837325801133069
450,14.850286216983816
451,14.863246632834544
452,14.876207048685131
453,14.889167464535957
454,14.9021278803864
455,14.915088296237307
456,14.928048712087898
457,14.941009127938756
458,14.953969543789569
459,14.966929959640405
460,14.979890375491177
461,14.992850791341814
462,15.00581120719256
463,15.018771623043374
464,15.031732038893932
465,15.044692454744776
466,15.057612264735637
467,15.070241391826956
468,15.082870518918217
469,15.095499646009841
470,15.108128773101242
471,15.120757900192583
472,15.133387027283689
473,15.146016154375038
474,15.158645281466402
475,15.171274408557668
476,15.183903535649
477,15.196532662740543
478,15.209161789831724
479,15.221790916923265
480,15.234420044014351
481,15.247049171105488
482,15.259678298196945
483,15.272307425288401
484,15.284936552379579
485,15.297565679470782
486,15.310194806562022
487,15.322823933653364
488,15.335453060744953
489,15.348082187836097
490,15.360711314927567
491,15.37334044201869
492,15.385969569110257
493,15.398598696201484
494,15.411227823292526
495,15.423856950384067
496,15.436486077475399
497,15.449115204566827
498,15.461744331658307
499,15.47437345874921
500,15.487002585840798
501,15.49963171293211
502,15.512260840023426
503,15.524889967114602
504,15.537519094205974
505,15.550148221297539
506,15.56277734838887
507,15.575406475480037
508,15.588035602571171
509,15.600664729662645
510,15.613293856753865
511,15.625922983845266
512,15.638552110936512
513,15.651181238028034
514,15.66381036511925
515,15.676439492210708
516,15.689068619301871
517,15.701697746393352
518,15.7143268734847
519,15.726956000575889
520,15.73958512766712
521,15.752214254758707
522,15.764843381849728
523,15.77747250894098
524,15.79010163603233
525,15.80273076312376
526,15.815359890215241
527,15.827989017306374
528,15.840618144397684
529,15.853247271489236
530,15.865876398580186
531,15.878505525671612
532,15.891134652763082
533,15.903763779854176
534,15.916392906945365
535,15.92902203403698
536,15.941651161128355
537,15.954280288219717
538,15.966909415310958
539,15.979538542402253
540,15.992167669493655
541,16.00479679658493
542,16.017425923676537
543,16.03005505076751
544,16.042684177858924
545,16.055313304950232
546,16.06794243204158
547,16.080571559132757
548,16.09320068622419
549,16.105829813315303
550,16.118458940406825
551,16.131088067498393
552,16.143717194589446
553,16.156346321680594
554,16.168975448772084
555,16.18160457586344
556,16.19423370295489
557,16.206862830045985
558,16.219491957137365
559,16.232121084228726
560,16.244750211319957
561,16.257379338411415
562,16.27000846550284
563,16.282637592594202
564,16.295266719685365
565,16.307895846776866
566,16.320524973868046
567,16.333154100959256
568,16.345783228050674
569,16.35841235514195
570,16.37104148223325
571,16.383670609324533
572,16.396299736416
573,16.40892886350709
574,16.421557990598473
575,16.434187117690215
576,16.446816244781406
577,16.45944537187242
578,16.472074498964062
579,16.48429405981579
580,16.49518800341342
581,16.506081947010944
582,16.51697589060854
583,16.527869834206204
584,16.538763777804025
585,16.549657721401463
586,16.560551664998897
587,16.57144560859676
588,16.582339552194348
589,16.593233495791942
590,16.604127439389778
591,16.615021382987347
592,16.62591532658453
593,16.636809270182763
594,16.64770321378016
595,16.658597157377702
596,16.669491100975183
597,16.680385044572855
598,16.691278988170588
599,16.702172931768075
600,16.713066875365993
601,16.723960818963395
602,16.734854762561106
603,16.745748706158597
604,16.756642649756245
605,16.767536593353956
606,16.778430536951138
607,16.7893244805492
608,16.800218424146593
609,16.811112367744222
610,16.822006311341983
611,16.832900254939503
612,16.84379419853711
613,16.854688142134744
614,16.86558208573241
615,16.876476029330007
616,16.887369972927793
617,16.898263916525426
618,16.90915786012294
619,16.9200518037206
620,16.93094574731849
621,16.94183969091575
622,16.952733634513482
623,16.963627578110952
624,16.974521521708418
625,16.985415465306374
626,16.996309408903898
627,17.00720335250146
628,17.018097296098993
629,17.028991239696804
630,17.039885183294242
631,17.05077912689199
632,17.061673070489466
633,17.07256701408709
634,17.083460957684657
635,17.0943549012825
636,17.10524884487993
637,17.11614278847787
638,17.127036732075474
639,17.137930675673026
640,17.148824619270567
641,17.159718562868054
642,17.170612506465904
643,17.181506450063512
644,17.192400393661032
645,17.20329433725865
646,17.214188280856305
647,17.225082224453867
648,17.23597616805131
649,17.246870111649187
650,17.25776405524692
651,17.26865799884417
652,17.27955194244207
653,17.2904458860396
654,17.30133982963714
655,17.312233773234695
656,17.323127716832477
657,17.33402166042996
658,17.344915604027676
659,17.355809547625178
660,17.36670349122294
661,17.37759743482061
662,17.388491378418056
663,17.399385322015938
664,17.410279265613347
665,17.421173209211066
666,17.432067152808525
667,17.442961096406318
668,17.45385504000379
669,17.464748983601513
670,17.475642927198955
671,17.486536870796737
672,17.497430814394548
673,17.508324757991996
674,17.519218701589363
675,17.53011264518706
676,17.541006588784942
677,17.5519005323822
678,17.562794475979942
679,17.573688419577522
680,17.584582363175212
681,17.595476306773023
682,17.60637025037054
683,17.617264193968133
684,17.628158137565777
685,17.639052081163303
686,17.649946024761142
687,17.66083996835855
688,17.671733911956082
689,17.682627855553655
690,17.693521799151384
691,17.70441574274925
692,17.715309686346565
693,17.726203629944262
694,17.73709757354203
695,17.74799151713932
696,17.7588854607372
697,17.769779404334884
698,17.78067334793245
699,17.79156729153009
700,17.802461235127478
701,17.813355178725164
702,17.824249122322943
703,17.835143065920438
704,17.846037009518
705,17.856930953115906
706,17.867824896713433
707,17.878718840311056
708,17.88961278390855
709,17.900506727506002
710,17.911400671103653
711,17.92229461470156
712,17.933188558299232
713,17.944082501896904
714,17.954976445494314
715,17.965870389092082
716,17.976764332689697
717,17.987658276287362
718,17.99855221988477
719,18.009446163482387
720,18.020340107080095
721,18.0312340506774
722,18.042127994275077
723,18.05302193787287
724,18.063915881470518
725,18.07480982506816
726,18.085703768665766
727,18.096597712263126
728,18.107491655860834
729,18.118385599458666
730,18.129279543056093
731,18.14017348665386
732,18.15106743025133
733,18.161961373848882
734,18.172855317446732
735,18.18374926104448
736,18.19464320464213
737,18.20553714823958
738,18.216431091837258
739,18.22732503543494
740,18.238218979032307
741,18.24911292263009
742,18.26000686622786
743,18.270900809825346
744,18.281794753423146
745,18.29268869702057
746,18.30358264061803
747,18.314476584215793
748,18.325370527813366
749,18.33626447141082
750,18.347158415008884
751,18.358052358606354
752,18.36894630220375
753,18.379840245801393
754,18.39073418939907
755,18.401628132996727
756,18.412522076594225
757,18.423416020191972
758,18.434309963789474
759,18.44520390738723
760,18.456097850984733
761,18.466991794582366
762,18.47788573817977
763,18.488779681777636
764,18.49967362537537
765,18.510567568972686
766,18.52146151257043
767,18.532355456168037
768,18.543249399765674
769,18.554143343363084
770,18.565037286960898
771,18.575931230558627
772,18.586825174156196
773,18.597719117753876
774,18.608613061351583
775,18.619507004948993
776,18.630400948546633
777,18.6412948921443
778,18.652188835741825
779,18.663082779339554
780,18.673976722937134
781,18.684870666534763
782,18.69576461013223
783,18.70665855373006
784,18.717552497328068
785,18.72844644092562
786,18.73934038452279
787,18.750234328120413
788,18.76112827171819
789,18.772022215315697
790,18.782916158913125
791,18.793810102511046
792,18.804704046108494
793,18.815597989706127
794,18.826491933303867
795,18.83738587690144
796,18.848279820498973
797,18.859173764096557
798,18.870067707694243
799,18.880961651292015
800,18.89185559488933
801,18.90274953848701
802,18.913643482084755
803,18.9245374256822
804,18.935431369280014
805,18.94561061915512
806,18.954960847902832
807,18.964311076650457
808,18.97366130539774
809,18.9830115341454
810,18.9923617628926
811,19.001711991640416
812,19.011062220387668
813,19.0204124491353
814,19.029762677882868
815,19.03911290663027
816,19.048463135377936
817,19.057813364125376
818,19.067163592872983
819,19.07651382162038
820,19.08586405036797
821,19.095214279115112
822,19.104564507862914
823,19.11391473661034
824,19.12326496535785
825,19.132615194105302
826,19.141965422852778
827,19.1513156516003
828,19.160665880347796
829,19.170016109095755
830,19.179366337842648
831,19.188716566590287
832,19.198066795338054
833,19.207417024085476
834,19.21676725283292
835,19.226117481580367
836,19.235467710327775
837,19.24481793907536
838,19.25416816782291
839,19.26351839657042
840,19.272868625317685
841,19.282218854065636
842,19.29156908281322
843,19.300919311560577
844,19.310269540307914
845,19.319619769055137
846,19.32896999780292
847,19.338320226550522
848,19.34767045529793
849,19.357020684045143
850,19.366370912792906
